#   THETA        EHF
0	-765.5508661
15	-765.5505545
30	-765.5496713
45	-765.5483891
60	-765.5470143
75	-765.5459266
90	-765.5454532
105	-765.5459266
120	-765.5470143
135	-765.5483891
150	-765.5496713
165	-765.5505545
180	-765.5508661


